# Aggregation and breakup problem
# Differential force aggregation kernel
# Power law breakup kernel
# Uniform daughter distribution
# Case 8 Madadi-Kandjani and Passalacqua
# Data: M0,M1,M2,M3,M4
#Time   M0          M1            M2            M3  M4
0     1             1.13          1.294         1.5 1.76
0.005 0.9957929871  1.126461151   1.2917226685  1.5 1.7639660305
0.01  0.9916455873  1.1229409279  1.2894431131  1.5 1.7679751566
0.015 0.9874453029  1.1193710794  1.2871277664  1.5 1.7720651625
0.02  0.9831925037  1.1157517248  1.2847765296  1.5 1.7762371905
0.025 0.9788875648  1.1120829852  1.2823893019  1.5 1.7804924149
0.03  0.9745308664  1.1083649838  1.2799659802  1.5 1.7848320436
0.035 0.9701227939  1.1045978455  1.2775064596  1.5 1.7892573186
0.04  0.9656637385  1.1007816976  1.2750106328  1.5 1.793769517
0.045 0.9611540962  1.0969166692  1.2724783904  1.5 1.798369952
0.05  0.9565942691  1.0930028919  1.269909621 1.5 1.8030599736
0.055 0.9519846645  1.0890404996  1.2673042112  1.5 1.8078409703
0.06  0.9473256955  1.0850296283  1.2646620454  1.5 1.8127143692
0.065 0.942631848 1.0809793577  1.2619877807  1.5 1.8176740075
0.07  0.9378935506  1.0768882868  1.2592827443  1.5 1.8227133381
0.075 0.9331205641  1.0727612748  1.2565488033  1.5 1.8278318135
0.08  0.9283063759  1.0686052055  1.2538407364  1.5 1.8306409094
0.085 0.9234500803  1.0643766063  1.251013149 1.5 1.8361049108
0.09  0.9185700353  1.0601380606  1.2481888491  1.5 1.8414751067
0.095 0.9135213691  1.0557404554  1.2452378337  1.5 1.847256538
0.1 0.9085750935  1.0514309853  1.2423546632  1.5 1.8527972935
0.105 0.9035978666  1.0470877163  1.2394429916  1.5 1.8584225831
0.11  0.8985220935  1.0426029893  1.2363884026  1.5 1.8646253685
0.115 0.8933975839  1.0380612358  1.2332824942  1.5 1.8710059095
0.12  0.8882238045  1.0334614921  1.2301240462  1.5 1.8775714338
0.125 0.8830000564  1.028802717 1.226911787 1.5 1.8843295257
0.13  0.8777493002  1.0241071096  1.2236631631  1.5 1.8912300258
0.135 0.8724508814  1.0193540403  1.2203612413  1.5 1.8983279959
0.14  0.8672284689  1.0147443324  1.2172234782  1.5 1.9046443582
0.145 0.8619811828  1.0101045648  1.2140582307  1.5 1.9110529369
0.15  0.856706289 1.0054321834  1.2108634737  1.5 1.917560226
0.155 0.8514042712  1.0007274233  1.2076391659  1.5 1.9241677362
0.16  0.8457713095  0.9956342225  1.2040548151  1.5 1.932161549
0.165 0.8402154936  0.9905615643  1.2004533314  1.5 1.9403531352
0.17  0.8346099997  0.9854268186  1.1967919252  1.5 1.9487870225
0.175 0.828954547 0.980229254 1.1930694573  1.5 1.9574721041
0.18  0.8232488959  0.9749681861  1.1892848211  1.5 1.9664173914
0.185 0.8174928148  0.9696429367  1.1854369048  1.5 1.9756321627
0.19  0.8116860786  0.9642528315  1.1815245881  1.5 1.9851259883
0.195 0.8058284713  0.9587972031  1.1775467453  1.5 1.9949087238
0.2 0.7999197878  0.9532753939  1.1735022483  1.5 2.0049905028
0.205 0.7939598368  0.9476867595  1.1693899707  1.5 2.0153817263
0.21  0.7879484434  0.9420306725  1.1652087912  1.5 2.0260930471
0.215 0.7818842791  0.9363060039  1.1609574123  1.5 2.0371354573
0.22  0.7757684249  0.9305127072  1.1566349188  1.5 2.0485199849
0.225 0.7696007716  0.9246502305  1.1522402344  1.5 2.06025791
0.23  0.7633812385  0.9187180565  1.1477723091  1.5 2.0723606623
0.235 0.7571097779  0.9127157084  1.1432301261  1.5 2.0848397807
0.24  0.7507863784  0.9066427553  1.1386127087  1.5 2.0977068673
0.245 0.7444110697  0.9004988188  1.1339191283  1.5 2.1109735342
0.25  0.7379838882  0.8942835358  1.1291484756  1.5 2.1246514522
0.255 0.7315046627  0.8879963028  1.12429963  1.5 2.1387531038
0.26  0.7249734973  0.8816368373  1.1193717544  1.5 2.1532902026
0.265 0.71839061  0.8752050074  1.1143641656  1.5 2.1682738987
0.27  0.7117562888  0.8687007752  1.1092762803  1.5 2.1837149595
0.275 0.7057225754  0.8630758057  1.1051442011  1.5 2.1940100925
0.28  0.6996797625  0.8574287565  1.1009827665  1.5 2.2044664432
0.285 0.6936284906  0.8517600381  1.0967920146  1.5 2.2150867735
0.29  0.6875694065  0.84607007  1.0925719906  1.5 2.2258738873
0.295 0.6815031633  0.8403592815  1.0883227467  1.5 2.2368306285
0.3 0.6754304206  0.8346281113  1.0840443428  1.5 2.2479598799
0.305 0.6693518443  0.8288770085  1.0797368471  1.5 2.2592645608
0.31  0.6632681071  0.8231064326  1.0754003365  1.5 2.2707476251
0.315 0.6571798883  0.817316854 1.0710348971  1.5 2.2824120583
0.32  0.6510878743  0.8115087542  1.0666406251  1.5 2.2942608748
0.325 0.6449927582  0.8056826267  1.0622176274  1.5 2.3062971137
0.33  0.638899159 0.7998408466  1.0577667355  1.5 2.3185233714
0.335 0.6328036731  0.7939819143  1.053287264 1.5 2.3309435121
0.34  0.6267070186  0.788106363 1.0487793565  1.5 2.3435606296
0.345 0.620609921 0.7822147395  1.0442431706  1.5 2.3563778223
0.35  0.6145131134  0.7763076048  1.0396788787  1.5 2.3693981866
0.355 0.6084173364  0.7703855342  1.0350866685  1.5 2.3826248091
0.36  0.6023233389  0.7644491184  1.0304667444  1.5 2.3960607577
0.365 0.5962318772  0.7584989636  1.0258193286  1.5 2.4097090719
0.37  0.5901437162  0.7525356925  1.0211446619  1.5 2.4235727516
0.375 0.5830845519  0.7452361154  1.0150732206  1.5 2.4446040251
0.38  0.5760871717  0.7379413701  1.0089551465  1.5 2.4662440451
0.385 0.5690623807  0.7305966773  1.0027688618  1.5 2.4884189665
0.39  0.5620121986  0.7232042963  0.9965162126  1.5 2.5111289576
0.395 0.554938769 0.7157666785  0.9901992966  1.5 2.5343722429
0.4 0.5478443621  0.7082864729  0.9838204744  1.5 2.5581449016
0.405 0.5407313768  0.7007665308  0.9773823793  1.5 2.5824406662
0.41  0.5336023428  0.693209909 0.9708879259  1.5 2.6072507275
0.415 0.5264599208  0.6856198716  0.964340316 1.5 2.6325635497
0.42  0.5193069028  0.6779998904  0.9577430428  1.5 2.6583647041
0.425 0.5121462108  0.6703536427  0.9510998911  1.5 2.6846367269
0.43  0.5049808947  0.6626850079  0.9444149351  1.5 2.7113590113
0.435 0.4978141286  0.6549980609  0.9376925314  1.5 2.7385077405
0.44  0.4906492061  0.6472970633  0.9309373089  1.5 2.7660558712
0.445 0.4834895339  0.6395864523  0.9241541533  1.5 2.7939731751
0.45  0.4763348685  0.6318689315  0.9173474227  1.5 2.8222269018
0.455 0.4691927462  0.624151219 0.9105232261  1.5 2.8507805974
0.46  0.4620668547  0.6164381779  0.9036870782  1.5 2.8795954838
0.465 0.4549609548  0.6087347753  0.8968446453  1.5 2.9086304578
0.47  0.4478788674  0.6010460585  0.8900017098  1.5 2.9378424809
0.475 0.4408244589  0.5933771308  0.8831641306  1.5 2.9671870314
0.48  0.4338016255  0.5857331242  0.8763378031  1.5 2.996618606
0.485 0.426814277 0.5781191736  0.8695286173  1.5 3.0260912559
0.49  0.4198663202  0.5705403896  0.8627424175  1.5 3.0555591405
0.495 0.4129616418  0.5630018324  0.8559849618  1.5 3.0849770776
0.5 0.4061040917  0.5555084871  0.8492618862  1.5 3.1143010701
0.505 0.3992974666  0.5480652403  0.8425786707  1.5 3.1434887895
0.51  0.3925454939  0.5406768588  0.8359406104  1.5 3.1724999986
0.515 0.3858518171  0.5333479704  0.8293527913  1.5 3.2012969
0.52  0.3792199815  0.5260830483  0.8228200715  1.5 3.2298444004
0.525 0.3726534214  0.5188863965  0.8163470664  1.5 3.2581102881
0.53  0.366155449 0.5117621386  0.8099381403  1.5 3.2860653231
0.535 0.3597292433  0.5047142091  0.803597401 1.5 3.3136832465
0.54  0.353377842 0.4977463461  0.7973286988  1.5 3.340940719
0.545 0.3471041332  0.4908620864  0.7911356284  1.5 3.3678172002
0.55  0.340910849 0.4840647623  0.7850215329  1.5 3.3942947824
0.555 0.3348005605  0.4773574987  0.7789895101  1.5 3.4203579938
0.56  0.3287756731  0.4707432128  0.7730424188  1.5 3.4459935838
0.565 0.3228384238  0.4642246131  0.7671828865  1.5 3.4711903031
0.57  0.3169908785  0.4578042005  0.7614133166  1.5 3.4959386865
0.575 0.3112349298  0.4514842679  0.7557358958  1.5 3.5202308497
0.58  0.3055722993  0.4452669038  0.7501526013  1.5 3.5440603002
0.585 0.3000045346  0.4391539922  0.7446652066  1.5 3.5674217711
0.59  0.2945330116  0.4331472155  0.7392752878  1.5 3.5903110756
0.595 0.2891589355  0.4272480569  0.7339842287  1.5 3.612724983
0.6 0.2838833116  0.4214577812  0.7287932141  1.5 3.6346611331
0.605 0.2787070431  0.415777505 0.7237032711  1.5 3.6561179054
0.61  0.2736308385  0.4102081332  0.7187152376  1.5 3.6770943915
0.615 0.2686552473  0.404750386 0.7138297782  1.5 3.69759033
0.62  0.2637806646  0.3994048029  0.70904739  1.5 3.7176060639
0.625 0.2590073348  0.3941717481  0.7043684064  1.5 3.7371425066
0.63  0.2543353573  0.3890514158  0.6997930027  1.5 3.7562011159
0.635 0.2497640773  0.3840433391  0.6953208793  1.5 3.7747844729
0.64  0.2452939431  0.3791478928  0.6909522342  1.5 3.7928945122
0.645 0.2409246502  0.374364797 0.6866868 1.5 3.8105341949
0.65  0.2366557712  0.3696936263  0.6825241735  1.5 3.827706954
0.655 0.2324867618  0.365133817 0.678463821 1.5 3.8444166782
0.66  0.2284169671  0.360684674 0.6745050855  1.5 3.8606676965
0.665 0.2244456274  0.3563453786  0.6706471925  1.5 3.8764647603
0.67  0.2205718855  0.3521149948  0.6668892572  1.5 3.8918130259
0.675 0.2167880921  0.3479862428  0.6632256493  1.5 3.9067295192
0.68  0.213100046 0.343964328 0.6596599978  1.5 3.921208868
0.685 0.2095066356  0.3400480126  0.6561911332  1.5 3.9352572408
0.69  0.2060066759  0.336235971 0.6528178021  1.5 3.9488811356
0.695 0.2025989147  0.3325267974  0.6495386743  1.5 3.9620873561
0.7 0.1992820388  0.3289190124  0.6463523492  1.5 3.9748829857
0.705 0.1960546797  0.3254110702  0.643257363 1.5 3.9872753627
0.71  0.1929154191  0.3220013655  0.6402521948  1.5 3.9992720544
0.715 0.1898627945  0.3186882398  0.637335273 1.5 4.0108808309
0.72  0.1868953045  0.3154699879  0.6345049817  1.5 4.0221096402
0.725 0.1840114138  0.312344864 0.6317596664  1.5 4.0329665821
0.73  0.1812095584  0.3093110877  0.6290976398  1.5 4.0434598842
0.735 0.1784450525  0.3063209784  0.6264781288  1.5 4.0537242988
0.74  0.1757604571  0.3034197043  0.6239393381  1.5 4.0636421423
0.745 0.173154152 0.3006054303  0.6214795548  1.5 4.07322106
0.75  0.1706245025  0.2978763025  0.6190970451  1.5 4.0824688646
0.755 0.1681698636  0.2952304527  0.6167900594  1.5 4.0913934995
0.76  0.1657885836  0.2926660035  0.6145568375  1.5 4.1000030044
0.765 0.1634790077  0.2901810728  0.6123956133  1.5 4.1083054838
0.77  0.1612394813  0.2877737774  0.6103046191  1.5 4.1163090791
0.775 0.159068353 0.2854422372  0.6082820895  1.5 4.1240219418
0.78  0.1569639772  0.2831845789  0.6063262652  1.5 4.1314522108
0.785 0.1549247174  0.2809989386  0.6044353963  1.5 4.1386079904
0.79  0.1529489478  0.2788834654  0.6026077454  1.5 4.1454973319
0.795 0.1510350562  0.276836324 0.6008415905  1.5 4.1521282156
0.8 0.1491814455  0.2748556968  0.5991352272  1.5 4.1585085361
0.805 0.147386536 0.2729397868  0.5974869714  1.5 4.1646460886
0.81  0.145648767 0.2710868189  0.5958951611  1.5 4.1705485566
0.815 0.1439665981  0.2692950425  0.5943581582  1.5 4.1762235019
0.82  0.1423385106  0.2675627326  0.5928743502  1.5 4.1816783551
0.825 0.140763009 0.2658881913  0.5914421516  1.5 4.1869204078
0.83  0.1392386217  0.2642697491  0.590060005 1.5 4.191956808
0.835 0.1377639023  0.2627057662  0.5887263822  1.5 4.1967945503
0.84  0.1363374301  0.2611946333  0.5874397853  1.5 4.201440474
0.845 0.1349556286  0.2597335118  0.5861981648  1.5 4.2059018138
0.85  0.1334527026  0.258120856 0.5848061943  1.5 4.2109956821
0.855 0.1319987521  0.2565620711  0.5834618167  1.5 4.2159201867
0.86  0.1305924528  0.2550557473  0.5821639183  1.5 4.2206748666
0.865 0.1292324913  0.2536004686  0.5809113421  1.5 4.2252604398
0.87  0.1279175681  0.2521948197  0.5797029016  1.5 4.229678565
0.875 0.1266463998  0.2508373915  0.5785373913  1.5 4.2339316471
0.88  0.1254177217  0.2495267863  0.5774135964  1.5 4.2380226779
0.885 0.1242302891  0.2482616213  0.5763302998  1.5 4.2419551059
0.89  0.1230828789  0.247040532 0.575286288 1.5 4.2457327287
0.895 0.1219742909  0.245862175 0.5742803569  1.5 4.249359604
0.9 0.1209033486  0.2447252297  0.5733113149  1.5 4.2528399775
0.905 0.1198689 0.2436284007  0.5723779872  1.5 4.2561782216
0.91  0.118869818 0.2425704184  0.5714792178  1.5 4.2593787865
0.915 0.1179050012  0.241550041 0.5706138722  1.5 4.2624461593
0.92  0.1169733739  0.2405660543  0.5697808387  1.5 4.2653848307
0.925 0.1160738862  0.2396172732  0.5689790302  1.5 4.2681992675
0.93  0.1152055145  0.2387025416  0.5682073846  1.5 4.2708938909
0.935 0.1143672609  0.2378207326  0.5674648664  1.5 4.2734730587
0.94  0.1135581536  0.2369707489  0.5667504665  1.5 4.275941051
0.945 0.1127772466  0.2361515227  0.5660632026  1.5 4.2783020595
0.95  0.1120236194  0.2353620156  0.5654021197  1.5 4.2805601783
0.955 0.1112963767  0.234601218 0.5647662901  1.5 4.2827193979
0.96  0.1105946485  0.2338681495  0.564154813 1.5 4.2847836004
0.965 0.1099175891  0.2331618581  0.5635668142  1.5 4.2867565559
0.97  0.1092643773  0.2324814199  0.5630014465  1.5 4.2886419209
0.975 0.1086342156  0.2318259383  0.5624578882  1.5 4.290443242
0.98  0.1080263301  0.2311945442  0.5619353437  1.5 4.2921639483
0.985 0.1074399697  0.2305863953  0.5614330431  1.5 4.2938073509
0.99  0.1068744064  0.2300006757  0.5609502415  1.5 4.2953766472
0.995 0.106328934 0.2294365949  0.5604862183  1.5 4.2968749226
1 0.1058028678  0.2288933876  0.5600402767  1.5 4.2983051521
1.005 0.1052955447  0.228370313 0.5596117435  1.5 4.2996702026
1.01  0.1048063217  0.2278666542  0.5591999678  1.5 4.3009728351
1.015 0.1043345765  0.2273817177  0.5588043213  1.5 4.3022157069
1.02  0.1038797062  0.2269148325  0.558424197 1.5 4.3034013751
1.025 0.1034411271  0.2264653501  0.558059009 1.5 4.3045322983
1.03  0.1030182742  0.2260326435  0.5577081918  1.5 4.30561084
1.035 0.1026106008  0.2256161065  0.5573711999  1.5 4.3066392713
1.04  0.1022153795  0.2252136923  0.55704673  1.5 4.3076207544
1.045 0.1018343773  0.2248263224  0.5567350213  1.5 4.3085572999
1.05  0.1014670983  0.2244534545  0.5564355954  1.5 4.3094507172
1.055 0.1011130626  0.224094564 0.5561479892  1.5 4.3103027725
1.06  0.100771806 0.2237491435  0.5558717551  1.5 4.3111151845
1.065 0.1004428791  0.2234167026  0.5556064603  1.5 4.3118896215
1.07  0.1001258475  0.2230967674  0.555351687 1.5 4.3126276998
1.075 0.09982029  0.2227888776  0.5551070289  1.5 4.3133310025
1.08  0.0995258001  0.2224925909  0.5548720964  1.5 4.3140010415
1.085 0.0992419856  0.2222074802  0.5546465143  1.5 4.3146392705
1.09  0.0989684674  0.2219331338  0.5544299209  1.5 4.3152470892
1.095 0.098704879 0.2216691539  0.5542219676  1.5 4.3158258446
1.1 0.0984508667  0.2214151569  0.5540223185  1.5 4.3163768313
1.105 0.0982060885  0.2211707726  0.55383065  1.5 4.3169012931
1.11  0.0979702145  0.2209356441  0.5536466505  1.5 4.317400424
1.115 0.0977429258  0.2207094271  0.5534700198  1.5 4.3178753694
1.12  0.0975239147  0.2204917894  0.5533004693  1.5 4.3183272279
1.125 0.0973128841  0.2202824111  0.5531377207  1.5 4.3187570525
1.13  0.0971095472  0.2200809835  0.5529815065  1.5 4.3191658519
1.135 0.096913624 0.2198872046  0.5528315644  1.5 4.3195546168
1.14  0.0967248466  0.2197007868  0.5526876457  1.5 4.3199242784
1.145 0.0965429575  0.2195214541  0.5525495123  1.5 4.320275721
1.15  0.0963677081  0.2193489406  0.5524169354  1.5 4.3206097908
1.155 0.096198857 0.2191829881  0.552289693 1.5 4.3209273048
1.16  0.096036172 0.2190233484  0.5521675722  1.5 4.3212290424
1.165 0.0958794298  0.2188697839  0.5520503697  1.5 4.3215157431
1.17  0.0957284153  0.2187220656  0.5519378899  1.5 4.3217881136
1.175 0.0955829209  0.2185799732  0.5518299451  1.5 4.3220468291
1.18  0.0954427465  0.2184432943  0.5517263547  1.5 4.322292535
1.185 0.0953076989  0.2183118244  0.5516269451  1.5 4.3225258478
1.19  0.0951775919  0.2181853666  0.5515315494  1.5 4.3227473564
1.195 0.095052246 0.2180637312  0.5514400073  1.5 4.3229576234
1.2 0.094931488 0.2179467356  0.5513521648  1.5 4.323157186
1.205 0.0948151509  0.217834204 0.5512678737  1.5 4.3233465572
1.21  0.0947030736  0.2177259671  0.5511869919  1.5 4.3235262267
1.215 0.094595101 0.217621862 0.5511093825  1.5 4.323696662
1.22  0.0944910834  0.2175217316  0.5510349145  1.5 4.3238583093
1.225 0.0943908764  0.2174254251  0.5509634615  1.5 4.3240115944
1.23  0.0942943411  0.217332797 0.5508949024  1.5 4.3241569237
1.235 0.0942013432  0.2172437074  0.5508291209  1.5 4.3242946848
1.24  0.0941117537  0.2171580217  0.5507660051  1.5 4.3244252476
1.245 0.0940254479  0.2170756101  0.5507054477  1.5 4.3245489646
1.25  0.0939401021  0.2169946409  0.5506462876  1.5 4.3246679866
1.255 0.0938578727  0.2169167416  0.5505894885  1.5 4.3247812363
1.26  0.0937786471  0.216841798 0.5505349598  1.5 4.3248889217
1.265 0.0937023162  0.2167696995  0.5504826141  1.5 4.3249912555
1.27  0.0936287751  0.2167003397  0.5504323665  1.5 4.3250884521
1.275 0.0935579224  0.2166336155  0.550384135 1.5 4.3251807251
1.28  0.0934896601  0.2165694276  0.5503378403  1.5 4.3252682858
1.285 0.0934238938  0.2165076803  0.5502934061  1.5 4.3253513416
1.29  0.0933605325  0.2164482813  0.5502507586  1.5 4.3254300953
1.295 0.0932994883  0.2163911416  0.5502098268  1.5 4.3255047441
1.3 0.0932406766  0.2163361755  0.5501705424  1.5 4.3255754793
1.305 0.0931840158  0.2162833005  0.5501328396  1.5 4.3256424854
1.31  0.0931294271  0.2162324371  0.550096655 1.5 4.3257059408
1.315 0.0930768348  0.2161835088  0.5500619279  1.5 4.3257660167
1.32  0.0930261656  0.2161364419  0.5500285997  1.5 4.3258228779
1.325 0.0929773493  0.2160911655  0.5499966143  1.5 4.3258766822
1.33  0.0929303178  0.2160476114  0.5499659175  1.5 4.3259275809
1.335 0.0928850057  0.2160057139  0.5499364574  1.5 4.3259757188
1.34  0.0928413501  0.2159654098  0.5499081843  1.5 4.3260212341
1.345 0.0927992902  0.2159266384  0.5498810501  1.5 4.3260642592
1.35  0.0927587674  0.215889341 0.549855009 1.5 4.3261049201
1.355 0.0927197253  0.2158534615  0.5498300168  1.5 4.3261433373
1.36  0.0926821097  0.2158189457  0.5498060311  1.5 4.3261796254
1.365 0.0926458683  0.2157857416  0.5497830112  1.5 4.3262138941
1.37  0.0926109505  0.2157537989  0.549760918 1.5 4.3262462473
1.375 0.0925773078  0.2157230695  0.549739714 1.5 4.3262767844
1.38  0.0925448934  0.2156935071  0.5497193633  1.5 4.3263055999
1.385 0.0925136623  0.215665067 0.5496998314  1.5 4.3263327836
1.39  0.092483571 0.2156377064  0.549681085 1.5 4.3263584212
1.395 0.0924545776  0.2156113841  0.5496630923  1.5 4.3263825939
1.4 0.092426642 0.2155860602  0.5496458229  1.5 4.3264053793
1.405 0.0923997252  0.2155616968  0.5496292474  1.5 4.3264268507
1.41  0.09237379  0.215538257 0.5496133377  1.5 4.3264470782
1.415 0.0923488001  0.2155157056  0.5495980668  1.5 4.3264661282
1.42  0.0923247211  0.2154940086  0.549583409 1.5 4.3264840639
1.425 0.0923015194  0.2154731335  0.5495693392  1.5 4.3265009451
1.43  0.0922791629  0.2154530487  0.5495558337  1.5 4.3265168289
1.435 0.0922576205  0.2154337241  0.5495428697  1.5 4.3265317694
1.44  0.0922368624  0.2154151307  0.5495304251  1.5 4.3265458179
1.445 0.0922168599  0.2153972405  0.549518479 1.5 4.3265590231
1.45  0.0921975852  0.2153800267  0.5495070111  1.5 4.3265714314
1.455 0.0921790116  0.2153634634  0.5494960021  1.5 4.3265830866
1.46  0.0921611134  0.2153475258  0.5494854334  1.5 4.3265940304
1.465 0.0921438659  0.2153321901  0.5494752872  1.5 4.3266043023
1.47  0.0921272453  0.2153174332  0.5494655463  1.5 4.3266139398
1.475 0.0921112284  0.215303233 0.5494561943  1.5 4.3266229784
1.48  0.0920957933  0.2152895684  0.5494472156  1.5 4.3266314517
1.485 0.0920809186  0.2152764189  0.5494385949  1.5 4.3266393918
1.49  0.0920665837  0.2152637649  0.5494303178  1.5 4.3266468289
1.495 0.092052769 0.2152515874  0.5494223705  1.5 4.3266537917
1.5 0.0920394553  0.2152398683  0.5494147395  1.5 4.3266603073
1.505 0.0920266243  0.2152285902  0.549407412 1.5 4.3266664015
1.51  0.0920142584  0.2152177362  0.5494003759  1.5 4.3266720986
1.515 0.0920023405  0.2152072901  0.5493936192  1.5 4.3266774217
1.52  0.0919908542  0.2151972366  0.5493871308  1.5 4.3266823928
1.525 0.0919797839  0.2151875605  0.5493808998  1.5 4.3266870324
1.53  0.0919691141  0.2151782475  0.5493749158  1.5 4.3266913601
